# SetNumber = 1
# AZ [deg], AZ_scanoffset [arcsec], power [dBm], T_B [K]
256.733882,-4320.000000,-20.200000,4.120838
256.734725,-4320.000000,-20.000000,5.886911
256.735569,-4320.000000,-20.030000,5.622000
256.736414,-4320.000000,-20.033000,5.595509
256.737258,-4320.000000,-20.240000,3.767623
256.738503,-4320.000000,-20.110000,4.915571
256.800294,-4105.945946,-20.040000,5.533697
256.862083,-3891.891892,-20.580000,0.765299
256.923872,-3677.837838,-20.001000,5.878081
256.985661,-3463.783784,-19.998000,5.904572
257.047449,-3249.729730,-19.680000,8.712629
257.109237,-3035.675676,-19.650000,8.977540
257.171024,-2821.621622,-19.550000,9.860577
257.232811,-2607.567568,-19.533000,10.010693
257.294597,-2393.513514,-19.455000,10.699462
257.356383,-2179.459459,-19.433000,10.893730
257.418168,-1965.405405,-19.333000,11.776766
257.479952,-1751.351351,-19.233000,12.659803
257.541737,-1537.297297,-19.133000,13.542840
257.603520,-1323.243243,-19.033000,14.425877
257.665303,-1109.189189,-18.000000,23.547646
257.727086,-895.135135,-17.000000,32.378013
257.788868,-681.081081,-13.000000,67.699482
257.850650,-467.027027,-10.040000,93.837369
257.912431,-252.972973,-10.020000,94.013976
257.974212,-38.918919,-10.024000,93.978655
258.035992,175.135135,-10.011000,94.093449
258.097772,389.189189,-10.329000,91.285393
258.159551,603.243243,-10.647000,88.477336
258.221330,817.297297,-14.000000,58.869115
258.283108,1031.351351,-17.000000,32.378013
258.344886,1245.405405,-18.300000,20.898536
258.406663,1459.459459,-19.000000,14.717279
258.468440,1673.513514,-20.400000,2.354765
258.530217,1887.567568,-20.053000,5.418902
258.591993,2101.621622,-20.067000,5.295277
258.653768,2315.675676,-20.053000,5.418902
258.715543,2529.729730,-20.043200,5.505440
258.777317,2743.783784,-20.043200,5.505440
258.839091,2957.837838,-20.043200,5.505440
258.900865,3171.891892,-20.076740,5.209269
258.962638,3385.945946,-20.063000,5.330598
259.024410,3600.000000,-20.063000,5.330598
259.024410,3600.000000,-20.063000,5.330598
259.025242,3600.000000,-20.063000,5.330598
259.026074,3600.000000,-20.063000,5.330598
259.026905,3600.000000,-20.063000,5.330598
259.027737,3600.000000,-20.063000,5.330598
259.028569,3600.000000,-20.063000,5.330598
# EL [deg], EL_scanoffset [arcsec], power [dBm], T_B [K]
11.745531,-4320.000000,-20.666667,0.000000
11.744481,-4320.000000,-20.666667,0.000000
11.743432,-4320.000000,-20.000000,5.886911
11.742381,-4320.000000,-20.030000,5.622000
11.741332,-4320.000000,-20.033000,5.595509
11.739841,-4320.000000,-20.240000,3.767623
11.797893,-4105.945946,-20.110000,4.915571
11.855949,-3891.891892,-20.040000,5.533697
11.914009,-3677.837838,-20.580000,0.765299
11.972072,-3463.783784,-20.001000,5.878081
12.030139,-3249.729730,-19.998000,5.904572
12.088209,-3035.675676,-19.680000,8.712629
12.146283,-2821.621622,-19.650000,8.977540
12.204361,-2607.567568,-19.550000,9.860577
12.262441,-2393.513514,-19.533000,10.010693
12.320526,-2179.459459,-19.455000,10.699462
12.378613,-1965.405405,-19.433000,10.893730
12.436704,-1751.351351,-19.333000,11.776766
12.494798,-1537.297297,-19.233000,12.659803
12.552895,-1323.243243,-19.133000,13.542840
12.610996,-1109.189189,-19.033000,14.425877
12.669099,-895.135135,-18.000000,23.547646
12.727206,-681.081081,-17.000000,32.378013
12.785315,-467.027027,-13.000000,67.699482
12.843428,-252.972973,-10.043000,93.810878
12.901544,-38.918919,-10.034000,93.890351
12.959662,175.135135,-10.024000,93.978655
13.017784,389.189189,-10.255000,91.938840
13.075908,603.243243,-10.253000,91.956500
13.134036,817.297297,-10.566000,89.192596
13.192166,1031.351351,-14.063000,58.312801
13.250298,1245.405405,-17.000000,32.378013
13.308434,1459.459459,-18.300000,20.898536
13.366572,1673.513514,-19.000000,14.717279
13.424713,1887.567568,-20.400000,2.354765
13.482856,2101.621622,-20.053000,5.418902
13.541002,2315.675676,-20.067000,5.295277
13.599151,2529.729730,-20.053000,5.418902
13.657302,2743.783784,-20.043200,5.505440
13.715456,2957.837838,-20.043200,5.505440
13.773612,3171.891892,-20.043200,5.505440
13.831771,3385.945946,-20.076740,5.209269
13.889932,3600.000000,-20.063000,5.330598
13.889932,3600.000000,-20.063000,5.330598
13.888882,3600.000000,-20.063000,5.330598
13.887833,3600.000000,-20.063000,5.330598
13.886784,3600.000000,-20.063000,5.330598
13.885734,3600.000000,-20.063000,5.330598
13.884685,3600.000000,-20.063000,5.330598
# SetNumber = 2
# AZ [deg], AZ_scanoffset [arcsec], power [dBm], T_B [K]
256.867835,-4320.000000,-20.030000,10.708433
256.868677,-4320.000000,-20.033000,10.682420
256.869520,-4320.000000,-20.240000,8.887566
256.870362,-4320.000000,-20.110000,10.014769
256.871204,-4320.000000,-20.040000,10.621725
256.872505,-4320.000000,-20.580000,5.939495
256.934254,-4105.945946,-20.001000,10.959886
256.996001,-3891.891892,-19.998000,10.985898
257.057748,-3677.837838,-19.680000,13.743211
257.119495,-3463.783784,-19.650000,14.003335
257.181241,-3249.729730,-19.550000,14.870414
257.242987,-3035.675676,-19.533000,15.017818
257.304732,-2821.621622,-19.455000,15.694140
257.366477,-2607.567568,-19.433000,15.884898
257.428221,-2393.513514,-19.333000,16.751977
257.489965,-2179.459459,-19.233000,17.619057
257.551708,-1965.405405,-19.133000,18.486136
257.613451,-1751.351351,-19.033000,19.353216
257.675193,-1537.297297,-19.000000,19.639352
257.736935,-1323.243243,-17.740000,30.564555
257.798677,-1109.189189,-15.500000,49.987137
257.860417,-895.135135,-9.550000,101.578371
257.922158,-681.081081,-9.554000,101.543687
257.983897,-467.027027,-9.533000,101.725774
258.045637,-252.972973,-9.498000,102.029252
258.107376,-38.918919,-9.500000,102.011910
258.169114,175.135135,-9.502000,101.994569
258.230852,389.189189,-14.000000,62.993330
258.292589,603.243243,-17.000000,36.980943
258.354326,817.297297,-18.300000,25.708909
258.416063,1031.351351,-19.000000,19.639352
258.477799,1245.405405,-19.700000,13.569795
258.539534,1459.459459,-20.053000,10.509004
258.601270,1673.513514,-20.067000,10.387613
258.663004,1887.567568,-20.053000,10.509004
258.724738,2101.621622,-20.043200,10.593978
258.786472,2315.675676,-20.043200,10.593978
258.848205,2529.729730,-20.043200,10.593978
258.909938,2743.783784,-20.076740,10.303160
258.971670,2957.837838,-20.063000,10.422296
259.033402,3171.891892,-20.063000,10.422296
259.095133,3385.945946,-20.063000,10.422296
259.156864,3600.000000,-20.063000,10.422296
259.156864,3600.000000,-20.063000,10.422296
259.157694,3600.000000,-20.063000,10.422296
259.158525,3600.000000,-20.063000,10.422296
259.159355,3600.000000,-20.063000,10.422296
259.160186,3600.000000,-20.464000,6.945307
259.161016,3600.000000,-20.865000,3.468318
# EL [deg], EL_scanoffset [arcsec], power [dBm], T_B [K]
11.578596,-4320.000000,-20.030000,10.708433
11.577545,-4320.000000,-20.033000,10.682420
11.576496,-4320.000000,-20.240000,8.887566
11.575445,-4320.000000,-20.110000,10.014769
11.574395,-4320.000000,-20.040000,10.621725
11.572907,-4320.000000,-20.580000,5.939495
11.630947,-4105.945946,-20.001000,10.959886
11.688992,-3891.891892,-19.998000,10.985898
11.747040,-3677.837838,-19.680000,13.743211
11.805093,-3463.783784,-19.650000,14.003335
11.863148,-3249.729730,-19.550000,14.870414
11.921208,-3035.675676,-19.533000,15.017818
11.979271,-2821.621622,-19.455000,15.694140
12.037338,-2607.567568,-19.433000,15.884898
12.095408,-2393.513514,-19.333000,16.751977
12.153482,-2179.459459,-19.233000,17.619057
12.211560,-1965.405405,-19.133000,18.486136
12.269640,-1751.351351,-19.033000,19.353216
12.327724,-1537.297297,-18.000000,28.310148
12.385812,-1323.243243,-17.000000,36.980943
12.443903,-1109.189189,-13.000000,71.664126
12.501997,-895.135135,-10.040000,97.329681
12.560094,-681.081081,-10.020000,97.503097
12.618194,-467.027027,-10.024000,97.468414
12.676298,-252.972973,-10.011000,97.581134
12.734404,-38.918919,-10.329000,94.823821
12.792514,175.135135,-10.647000,92.066508
12.850626,389.189189,-14.000000,62.993330
12.908742,603.243243,-17.000000,36.980943
12.966860,817.297297,-18.300000,25.708909
13.024982,1031.351351,-19.000000,19.639352
13.083106,1245.405405,-20.400000,7.500238
13.141233,1459.459459,-20.053000,10.509004
13.199363,1673.513514,-20.067000,10.387613
13.257495,1887.567568,-20.053000,10.509004
13.315631,2101.621622,-20.043200,10.593978
13.373769,2315.675676,-20.043200,10.593978
13.431909,2529.729730,-20.043200,10.593978
13.490053,2743.783784,-20.076740,10.303160
13.548199,2957.837838,-20.063000,10.422296
13.606347,3171.891892,-20.063000,10.422296
13.664498,3385.945946,-20.063000,10.422296
13.722652,3600.000000,-20.063000,10.422296
13.722652,3600.000000,-20.063000,10.422296
13.721602,3600.000000,-20.063000,10.422296
13.720552,3600.000000,-20.063000,10.422296
13.719502,3600.000000,-20.063000,10.422296
13.718452,3600.000000,-20.063000,10.422296
13.717403,3600.000000,-20.063000,10.422296
# SetNumber = 3
# AZ [deg], AZ_scanoffset [arcsec], power [dBm], T_B [K]
257.001635,-4320.000000,-20.030000,4.763628
257.002476,-4320.000000,-20.033000,4.730662
257.003317,-4320.000000,-20.240000,2.455988
257.004158,-4320.000000,-20.110000,3.884527
257.004998,-4320.000000,-20.040000,4.653741
257.006299,-4320.000000,-20.580000,-1.280191
257.068005,-4105.945946,-20.001000,5.082303
257.129712,-3891.891892,-19.998000,5.115269
257.191417,-3677.837838,-19.680000,8.609695
257.253123,-3463.783784,-19.650000,8.939358
257.314828,-3249.729730,-19.550000,10.038234
257.376532,-3035.675676,-19.533000,10.225043
257.438236,-2821.621622,-19.455000,11.082167
257.499939,-2607.567568,-19.433000,11.323919
257.561642,-2393.513514,-19.333000,12.422796
257.623345,-2179.459459,-19.233000,13.521672
257.685047,-1965.405405,-19.133000,14.620548
257.746748,-1751.351351,-19.122000,14.741424
257.808449,-1537.297297,-18.000000,27.070816
257.870149,-1323.243243,-17.000000,38.059578
257.931849,-1109.189189,-13.000000,82.014627
257.993549,-895.135135,-10.040000,114.541363
258.055248,-681.081081,-10.020000,114.761138
258.116947,-467.027027,-10.024000,114.717183
258.178645,-252.972973,-10.011000,114.860037
258.240342,-38.918919,-10.329000,111.365610
258.302039,175.135135,-10.647000,107.871184
258.363736,389.189189,-14.000000,71.025864
258.425432,603.243243,-17.000000,38.059578
258.487128,817.297297,-18.300000,23.774187
258.548823,1031.351351,-19.000000,16.082053
258.610518,1245.405405,-20.400000,0.697786
258.672212,1459.459459,-20.053000,4.510887
258.733906,1673.513514,-20.067000,4.357044
258.795599,1887.567568,-20.053000,4.510887
258.857292,2101.621622,-20.043200,4.618577
258.918985,2315.675676,-20.043200,4.618577
258.980677,2529.729730,-20.043200,4.618577
259.042368,2743.783784,-20.076740,4.250014
259.104059,2957.837838,-20.063000,4.400999
259.165750,3171.891892,-20.063000,4.400999
259.227440,3385.945946,-20.063000,4.400999
259.289130,3600.000000,-20.063000,4.400999
259.289130,3600.000000,-20.063000,4.400999
259.289959,3600.000000,-20.063000,4.400999
259.290788,3600.000000,-20.063000,4.400999
259.291618,3600.000000,-20.063000,4.400999
259.292447,3600.000000,-20.384000,0.873607
259.293276,3600.000000,-20.000000,5.093291
# EL [deg], EL_scanoffset [arcsec], power [dBm], T_B [K]
11.411615,-4320.000000,-19.998000,5.115269
11.410564,-4320.000000,-20.563000,-1.093382
11.409514,-4320.000000,-20.498000,-0.379112
11.408464,-4320.000000,-20.466000,-0.027472
11.407413,-4320.000000,-20.468000,-0.049449
11.405924,-4320.000000,-20.572000,-1.192281
11.463953,-4105.945946,-20.589000,-1.379090
11.521985,-3891.891892,-20.042000,4.631763
11.580022,-3677.837838,-20.043000,4.620774
11.638063,-3463.783784,-20.003000,5.060325
11.696107,-3249.729730,-20.040000,4.653741
11.754156,-3035.675676,-19.530000,10.258009
11.812208,-2821.621622,-19.440000,11.246998
11.870264,-2607.567568,-19.300000,12.785425
11.928323,-2393.513514,-19.352000,12.214009
11.986387,-2179.459459,-19.321000,12.554661
12.044453,-1965.405405,-18.002100,27.047739
12.102524,-1751.351351,-17.050000,37.510140
12.160597,-1537.297297,-14.000000,71.025864
12.218675,-1323.243243,-11.000000,103.992151
12.276755,-1109.189189,-10.040000,114.541363
12.334839,-895.135135,-10.020000,114.761138
12.392927,-681.081081,-10.024000,114.717183
12.451017,-467.027027,-10.011000,114.860037
12.509111,-252.972973,-10.329000,111.365610
12.567208,-38.918919,-10.647000,107.871184
12.625309,175.135135,-14.000000,71.025864
12.683412,389.189189,-17.000000,38.059578
12.741518,603.243243,-18.430000,22.345648
12.799628,817.297297,-19.002000,16.060076
12.857740,1031.351351,-20.041000,4.642752
12.915856,1245.405405,-20.076740,4.250014
12.973974,1459.459459,-20.063000,4.400999
13.032095,1673.513514,-20.063000,4.400999
13.090219,1887.567568,-20.063000,4.400999
13.148346,2101.621622,-20.063000,4.400999
13.206476,2315.675676,-20.063000,4.400999
13.264608,2529.729730,-20.063000,4.400999
13.322744,2743.783784,-20.063000,4.400999
13.380882,2957.837838,-20.063000,4.400999
13.439022,3171.891892,-20.181250,3.101578
13.497165,3385.945946,-20.194567,2.955244
13.555311,3600.000000,-20.207883,2.808911
13.555311,3600.000000,-20.221200,2.662577
13.554261,3600.000000,-20.234517,2.516243
13.553211,3600.000000,-20.247833,2.369910
13.552160,3600.000000,-20.261150,2.223576
13.551110,3600.000000,-20.274467,2.077242
